EXPLAIN
TAG	HYBRIDEIS
TITLE	LABEL	Hybrid EIS	Test Identifier
DATE	LABEL	30.6.2025	Date
TIME	LABEL	19:18:03	Time
NOTES	NOTES	1	Notes...
	
PSTAT	PSTAT	A-01	Potentiostat
FREQINIT	QUANT	1.00000E+005	Initial Freq. (Hz)
FREQFINAL	QUANT	1.00000E-002	Final Freq. (Hz)
PTSPERDEC	QUANT	1.00000E+001	Points/decade
IDC	QUANT	0.00000E+000	DC Current (A)
VAC	QUANT	1.00000E+001	AC Voltage (mV rms)
AREA	QUANT	1.00000E+000	Sample Area (cm^2)
SPEED	SELECTOR	1	Optimize for:
DRIFTCOR	SELECTOR	0	Drift Correction
THD	SELECTOR	0	THD
ZGUESS	QUANT	2.00000E-002	Estimated Z (ohms)
EOC	QUANT	3.687113	Open Circuit (V)
SEQUENCER	TOGGLE	TRUE	Run as Sequence
PSTATMODEL	IQUANT	53	Pstat Model
PSTATSECTION	LABEL	IFC5000-10519	Pstat Section
PSTATSERIALNO	LABEL	10519	Pstat Serial Number
CTRLMODE	IQUANT	0	Control Mode
ELECTROMETER	IQUANT	0	RE=0 or CS=1
IESTAB	IQUANT	0	I/E Stability
CASPEED	IQUANT	4	Control Amp Speed
CONVENTION	IQUANT	1	Current Convention
ICHRANGE	IQUANT	2	Ich Range
ICHRANGEMODE	TOGGLE	F	Ich Auto Range
ICHOFFSETENABLE	TOGGLE	T	Ich Offset Enable
ICHOFFSET	QUANT	0	Ich Offset (V)
ICHFILTER	IQUANT	4	Ich Filter
VCHRANGE	IQUANT	2	Vch Range
VCHRANGEMODE	TOGGLE	F	Vch Auto Range
VCHOFFSETENABLE	TOGGLE	T	Vch Offset Enable
VCHOFFSET	QUANT	0	Vch Offset (V)
VCHFILTER	IQUANT	4	Vch Filter
IERANGELOWERLIMIT	IQUANT	7	I/E Range Lower Limit
IERANGEMODE	TOGGLE	F	I/E AutoRange
IERANGE	IQUANT	10	I/E Range
ACHSELECT	IQUANT	4	Ach Select
ACHRANGE	IQUANT	2	Ach Range
ACHOFFSETENABLE	TOGGLE	F	Ach Offset Enable
ACHOFFSET	QUANT	0	Ach Offset (V)
ACHFILTER	IQUANT	1	Ach Filter
SENSECABLEID	IQUANT	13	Sense Cable ID
PWRCABLEID	IQUANT	13	Power Cable ID
DCCALDATE	LABEL	10/11/2024	DC Calibration Date
ACCALDATE	LABEL	5/24/2021	AC Calibration Date
FRAMEWORKVERSION	LABEL	7.10.3	Framework Version
INSTRUMENTVERSION	LABEL	4.91	Instrument Version
COMMVERSION	LABEL	3.10	Communications Version
CPUPLDVERSION	LABEL	5.25	CPU PLD Version
CTRLPLDVERSION	LABEL	0.00	CTRL PLD Version
PSTATPLDVERSION	LABEL	0.00	PSTAT PLD Version
ZCURVE	TABLE
	Pt	Time	Freq	Zreal	Zimag	Zsig	Zmod	Zphz	Idc	Vdc	IERange	Imod	Vmod	Temp
	#	s	Hz	ohm	ohm	V	ohm	°	A	V	#	A	V	°C
	0	3	100019.5	0.0775694	0.1319147	1	0.1530311	59.54331	-5.486188E-006	3.690247	11	0.0070686	0.0010723	19.60495
	1	5	79511.72	0.0684657	0.1107428	1	0.130198	58.27397	-5.279878E-005	3.690228	11	0.0091319	0.0011822	19.60495
	2	7	63105.47	0.0610191	0.0928089	1	0.1110713	56.67625	-7.700502E-005	3.690242	11	0.0116776	0.0012921	19.60495
	3	8	50214.84	0.0549419	0.0774998	1	0.0949991	54.66606	-7.667308E-005	3.690258	11	0.0148066	0.0014031	19.60495
	4	10	39902.34	0.05013	0.0647399	1	0.0818796	52.24831	-0.0001229	3.690267	11	0.0187411	0.001532	19.60495
	5	12	31699.22	0.0462316	0.0541314	1	0.0711869	49.50061	-0.0001742	3.690235	11	0.0236768	0.0016837	19.60495
	6	13	25136.72	0.0428921	0.0452543	1	0.0623513	46.53507	-0.0001662	3.690259	11	0.0299498	0.0018661	19.60495
	7	15	19980.47	0.0400723	0.038064	1	0.0552689	43.52765	-0.0001814	3.690208	11	0.0378184	0.0020893	19.60495
	8	16	15878.91	0.0374968	0.0319453	1	0.0492597	40.42925	-0.0003557	3.690245	11	0.0485861	0.0023927	19.60495
	9	18	12597.66	0.0352457	0.026614	1	0.0441652	37.05643	-0.0006885	3.69016	11	0.0688941	0.0030422	19.60495
	10	20	10019.53	0.0333305	0.0219794	1	0.0399251	33.40238	-0.0011218	3.690125	11	0.1101095	0.0043956	19.60495
	11	21	7928.241	0.0317881	0.0177332	1	0.0363999	29.15516	-0.0020966	3.689947	11	0.1762792	0.0064161	19.60495
	12	23	6307.871	0.0306841	0.0140711	1	0.0337566	24.63518	-0.0027747	3.689857	11	0.2544197	0.008588	19.60495
	13	24	5034.722	0.0299664	0.0108806	1	0.0318806	19.9557	-0.0011631	3.690059	11	0.3142641	0.0100109	19.60495
	14	26	3993.056	0.0295895	0.0080582	1	0.0306671	15.23407	0.0006924	3.69051	12	0.4789529	0.0146789	19.60495
	15	27	3144.055	0.0294337	0.0055036	1	0.0299438	10.59096	0.0001307	3.690346	12	0.3279983	0.0098172	19.60495
	16	29	2519.531	0.0295273	0.0034932	1	0.0297332	6.746989	0.0001038	3.690338	12	0.3352905	0.0099663	19.60495
	17	30	2000.762	0.0298043	0.001699	1	0.0298526	3.262573	0.0001075	3.690361	12	0.3366875	0.010049	19.60495
	18	32	1580.669	0.0302335	0.000131	1	0.0302338	0.2481963	9.321654E-005	3.690306	12	0.3346098	0.0101152	19.60495
	19	33	1253.634	0.0307743	-0.0011993	1	0.0307977	-2.23181	0.0001003	3.690369	12	0.3302887	0.0101713	19.60495
	20	35	1000.702	0.0313939	-0.0023389	1	0.0314809	-4.260845	0.0006955	3.690316	12	0.3248442	0.0102259	19.60495
	21	36	790.0281	0.0321415	-0.003386	1	0.0323194	-6.013747	0.0006927	3.690347	12	0.3183184	0.0102875	19.60495
	22	37	628.811	0.0329277	-0.0042577	1	0.0332019	-7.367747	-2.829451E-005	3.690349	11	0.307135	0.0101972	19.60495
	23	39	502.2321	0.0337985	-0.005042	1	0.0341725	-8.484688	-2.215407E-005	3.690312	11	0.2890287	0.0099736	19.60495
	24	40	400.1524	0.0347398	-0.0057626	1	0.0352145	-9.418477	-2.207514E-005	3.690263	11	0.2999852	0.0106223	19.60495
	25	42	315.5048	0.0357833	-0.0064528	1	0.0363605	-10.22233	-1.883763E-005	3.690285	11	0.2870351	0.0104691	19.60495
	26	43	252.0161	0.0368147	-0.0070739	1	0.0374881	-10.87679	4.82246E-005	3.690325	11	0.2759178	0.0103627	19.60495
	27	45	200.3205	0.037914	-0.0077021	1	0.0386884	-11.48317	4.904991E-005	3.690242	11	0.2668312	0.0103346	19.60495
	28	46	158.0056	0.039109	-0.0083731	1	0.0399953	-12.08445	5.270343E-005	3.69027	11	0.2576233	0.0103105	19.65655
	29	47	125.558	0.0403518	-0.0090464	1	0.0413534	-12.63609	-8.65839E-006	3.690252	11	0.2477876	0.010251	19.60495
	30	49	99.734	0.0417139	-0.0097643	1	0.0428415	-13.17439	5.496253E-005	3.690225	11	0.2366266	0.01014	19.60495
	31	50	79.44915	0.0432231	-0.0104999	1	0.0444801	-13.654	1.694763E-005	3.690474	11	0.2356958	0.0104854	19.60495
	32	52	62.91946	0.0449333	-0.0112494	1	0.0463201	-14.05548	8.028944E-005	3.690517	11	0.2248272	0.0104151	19.60495
	33	53	49.86702	0.0467437	-0.0119265	1	0.0482412	-14.31342	1.741078E-005	3.690531	11	0.2159742	0.0104195	19.60495
	34	55	38.42213	0.0489394	-0.0126098	1	0.0505379	-14.44865	1.619676E-005	3.690562	11	0.2072971	0.0104767	19.60495
	35	56	31.25	0.0507609	-0.0130753	1	0.0524178	-14.44457	1.76461E-005	3.690587	11	0.1978779	0.0103726	19.60495
	36	58	24.93351	0.0527826	-0.0134768	1	0.0544759	-14.32312	2.323458E-005	3.690603	11	0.1906587	0.0103865	19.60495
	37	59	20.03205	0.0547639	-0.0138129	1	0.056479	-14.15628	8.663292E-005	3.690671	11	0.1835634	0.0103676	19.60495
	38	61	15.625	0.0569	-0.0141632	1	0.0586362	-13.97765	2.107017E-005	3.69065	11	0.177062	0.0103823	19.60495
	39	63	12.46675	0.0587844	-0.0145265	1	0.0605527	-13.8806	2.132189E-005	3.690634	11	0.1705442	0.0103269	19.65655
	40	65	9.9734	0.0606995	-0.0149882	1	0.0625226	-13.87032	2.150422E-005	3.690702	11	0.1651452	0.0103253	19.60495
	41	67	7.971939	0.0625399	-0.0155817	1	0.0644518	-13.99034	2.098361E-005	3.6907	11	0.1599425	0.0103086	19.60495
	42	69	6.351626	0.0645181	-0.016359	1	0.0665598	-14.22786	2.022433E-005	3.690756	11	0.1551547	0.0103271	19.60495
	43	71	5.013369	0.0666144	-0.0174066	1	0.068851	-14.64414	8.264316E-005	3.690751	11	0.1502363	0.0103439	19.60495
	44	74	3.985969	0.0688394	-0.0185597	1	0.0712974	-15.08869	1.942983E-005	3.690825	11	0.1452456	0.0103556	19.60495
	45	76	3.175813	0.071065	-0.0199798	1	0.0738202	-15.7032	1.938903E-005	3.690815	11	0.1402575	0.0103538	19.60495
	46	80	2.516103	0.073775	-0.0212754	1	0.0767815	-16.08663	8.468272E-005	3.690907	11	0.1312265	0.0101279	19.60495
	47	83	1.99553	0.0764921	-0.0230523	1	0.0798902	-16.77112	8.452783E-005	3.690905	11	0.1326354	0.0106258	19.60495
	48	88	1.587906	0.0792338	-0.0251857	1	0.0831403	-17.63369	1.987419E-005	3.690863	11	0.1261043	0.0105007	19.60495
	49	93	1.258052	0.0823499	-0.0275677	1	0.0868417	-18.50866	8.328282E-005	3.690917	11	0.1206517	0.0104869	19.60495
	50	99	0.997765	0.0855354	-0.0303903	1	0.0907737	-19.55988	8.247665E-005	3.690997	11	0.1153064	0.0104723	19.55334
	51	105	0.7927448	0.0890543	-0.0340094	1	0.0953273	-20.9016	8.241285E-005	3.690975	11	0.1102331	0.0105116	19.55334
	52	111	0.6290258	0.0929226	-0.0381985	1	0.1004676	-22.34653	8.216404E-005	3.690926	11	0.1049375	0.0105449	19.55334
	53	119	0.4988825	0.0973064	-0.0433554	1	0.106528	-24.01563	8.219696E-005	3.69085	11	0.0995555	0.0106067	19.55334
	54	129	0.3985969	0.1022738	-0.0492339	1	0.1135073	-25.70583	1.817627E-005	3.690765	11	0.0938874	0.0106577	19.55334
	55	141	0.316723	0.1085191	-0.0560878	1	0.1221566	-27.33204	1.765428E-005	3.69069	11	0.0881081	0.0107635	19.55334
	56	155	0.2514753	0.1158859	-0.0640299	1	0.1323985	-28.92176	1.748737E-005	3.690562	11	0.0818683	0.0108396	19.55334
	57	177	0.1999787	0.1253749	-0.0724145	1	0.1447851	-30.01002	1.751124E-005	3.690557	11	0.0755337	0.0109364	19.60495
	58	198	0.1587906	0.1369556	-0.0812917	1	0.1592645	-30.69178	1.695737E-005	3.690491	11	0.0690711	0.0110007	19.60495
	59	230	0.1260081	0.151283	-0.0896957	1	0.1758745	-30.66371	1.700967E-005	3.690642	11	0.0627899	0.0110432	19.60495
	60	268	0.1001603	0.1683253	-0.0969472	1	0.1942477	-29.93985	1.643228E-005	3.690985	11	0.0568598	0.0110449	19.55334
	61	305	0.0795031	0.186712	-0.102704	1	0.213095	-28.81371	1.618883E-005	3.691139	11	0.0514816	0.0109705	19.55334
	62	357	0.0631398	0.205731	-0.1061608	1	0.2315067	-27.29452	1.703292E-005	3.69092	11	0.0469284	0.0108642	19.60495
	63	406	0.050123	0.2255238	-0.1068772	1	0.2495671	-25.35658	1.65217E-005	3.690893	11	0.0431952	0.0107801	19.60495
	64	468	0.0398326	0.2448887	-0.1054978	1	0.2666463	-23.30633	1.646623E-005	3.690901	11	0.0400695	0.0106844	19.55334
	65	545	0.0316381	0.262857	-0.1023037	1	0.2820635	-21.26594	1.636499E-005	3.690924	11	0.0375027	0.0105781	19.60495
	66	641	0.025126	0.2794485	-0.0982502	1	0.2962171	-19.37097	1.620453E-005	3.690969	11	0.0354529	0.0105018	19.60495
	67	802	0.019957	0.2944436	-0.093816	1	0.3090283	-17.67298	1.610377E-005	3.691035	11	0.033759	0.0104325	19.60495
	68	1004	0.015849	0.3081161	-0.0896328	1	0.3208887	-16.22003	1.592587E-005	3.691116	11	0.0323595	0.0103838	19.55334
	69	1258	0.01259	0.3208757	-0.0859767	1	0.3321945	-14.99972	1.711149E-006	3.691201	10	0.0312819	0.0103917	19.55334
	70	1578	0.0100006	0.3324122	-0.0829747	1	0.3426116	-14.01542	1.831414E-006	3.691296	10	0.0301027	0.0103135	19.55334
