EXPLAIN
TAG	HYBRIDEIS
TITLE	LABEL	RawEISGamry_01-02_22-14-082	Test &Identifier
DATE	LABEL	15.6.2023	Date
TIME	LABEL	17:01:09	Time
NOTES	NOTES	1	&Notes...
	
PSTAT	PSTAT	G-02	Potentiostat
IDC	QUANT	0,00000E+000	&DC Current (mA)
VAC	QUANT	5,00000E+000	AC &Voltage (mV rms)
FREQINIT	QUANT	1,00000E+005	Initial Fre&q. (Hz)
FREQFINAL	QUANT	1,00000E-002	Final Fre&q. (Hz)
PTSPERDEC	QUANT	1,00000E+001	Points/&decade
AREA	QUANT	1,00000E+000	&Area (cm^2)
DENSITY	QUANT	7,87000E+000	&Density (g/cm^3)
EQUIV	QUANT	2,79200E+001	Equiv. &Wt
CONDIT	TWOPARAM	F	1,50000E+001	0,00000E+000	Conditionin&g	Time(s)	E(V)
DELAY	TWOPARAM	T	1,00000E+001	0,00000E+000	Init. De&lay	Time(s)	Stab.(mV/s)
SPEED	SELECTOR	1	&Optimize for:
THD	SELECTOR	0	T&HD
DRIFTCOR	SELECTOR	0	&Drift Correction
ZGUESS	QUANT	1,00000E-002	E&stimated Z (ohms)
OCVCURVE	TABLE	40
	Pt	T	Vf	Vm	Ach	Over	Temp
	#	s	V vs. Ref.	V	V	bits	deg C
	0	0,25	3,82408E+000	3,82408E+000	3,34336E-003	...........	1399,16
	1	0,5	3,82408E+000	3,82396E+000	3,30077E-003	...........	1398,46
	2	0,75	3,82406E+000	3,82396E+000	3,29097E-003	...........	1398,46
	3	1	3,82404E+000	3,82400E+000	3,31230E-003	...........	1398,46
	4	1,25	3,82401E+000	3,82395E+000	3,33056E-003	...........	1397,83
	5	1,5	3,82398E+000	3,82396E+000	3,30777E-003	...........	1396,98
	6	1,75	3,82397E+000	3,82394E+000	3,31003E-003	...........	1396,98
	7	2	3,82396E+000	3,82397E+000	3,31357E-003	...........	1396,98
	8	2,25	3,82396E+000	3,82393E+000	3,31857E-003	...........	1396,98
	9	2,5	3,82395E+000	3,82395E+000	3,31717E-003	...........	1396,98
	10	2,75	3,82395E+000	3,82396E+000	3,29517E-003	...........	1396,98
	11	3	3,82395E+000	3,82397E+000	3,30784E-003	...........	1396,98
	12	3,25	3,82395E+000	3,82403E+000	3,29524E-003	...........	1396,98
	13	3,5	3,82397E+000	3,82398E+000	3,30310E-003	...........	1396,98
	14	3,75	3,82398E+000	3,82399E+000	3,31543E-003	...........	1396,98
	15	4	3,82399E+000	3,82395E+000	3,30837E-003	...........	1396,98
	16	4,25	3,82399E+000	3,82395E+000	3,32090E-003	...........	1396,98
	17	4,5	3,82398E+000	3,82397E+000	3,29677E-003	...........	1396,98
	18	4,75	3,82397E+000	3,82394E+000	3,30564E-003	...........	1396,98
	19	5	3,82396E+000	3,82397E+000	3,31137E-003	...........	1396,98
	20	5,25	3,82396E+000	3,82399E+000	3,32190E-003	...........	1396,98
	21	5,5	3,82396E+000	3,82401E+000	3,31030E-003	...........	1396,98
	22	5,75	3,82397E+000	3,82398E+000	3,31577E-003	...........	1396,98
	23	6	3,82398E+000	3,82395E+000	3,31430E-003	...........	1396,98
	24	6,25	3,82399E+000	3,82401E+000	3,30217E-003	...........	1396,98
	25	6,5	3,82398E+000	3,82393E+000	3,30230E-003	...........	1396,98
	26	6,75	3,82398E+000	3,82393E+000	3,29950E-003	...........	1396,98
	27	7	3,82397E+000	3,82395E+000	3,30024E-003	...........	1396,98
	28	7,25	3,82396E+000	3,82399E+000	3,30983E-003	...........	1397,02
	29	7,5	3,82395E+000	3,82398E+000	3,31650E-003	...........	1397,07
	30	7,75	3,82396E+000	3,82395E+000	3,30983E-003	...........	1397,07
	31	8	3,82397E+000	3,82401E+000	3,30590E-003	...........	1397,07
	32	8,25	3,82397E+000	3,82400E+000	3,30250E-003	...........	1397,03
	33	8,5	3,82398E+000	3,82397E+000	3,32163E-003	...........	1396,98
	34	8,75	3,82399E+000	3,82398E+000	3,32103E-003	...........	1396,98
	35	9	3,82399E+000	3,82400E+000	3,30744E-003	...........	1396,98
	36	9,25	3,82399E+000	3,82391E+000	3,31030E-003	...........	1396,98
	37	9,5	3,82398E+000	3,82395E+000	3,32530E-003	...........	1396,98
	38	9,75	3,82397E+000	3,82403E+000	3,31550E-003	...........	1396,98
	39	10	3,82397E+000	3,82398E+000	3,30930E-003	...........	1396,98
EOC	QUANT	3,823965	Open Circuit (V)
PSTATMODEL	IQUANT	53	Pstat Model
PSTATSECTION	LABEL	IFC5000-10520	Pstat Section
PSTATSERIALNO	LABEL	10520	Pstat Serial Number
CTRLMODE	IQUANT	0	Control Mode
ELECTROMETER	IQUANT	0	RE=0 or CS=1
IESTAB	IQUANT	0	I/E Stability
CASPEED	IQUANT	4	Control Amp Speed
CONVENTION	IQUANT	1	Current Convention
ICHRANGE	IQUANT	2	Ich Range
ICHRANGEMODE	TOGGLE	F	Ich Auto Range
ICHOFFSETENABLE	TOGGLE	T	Ich Offset Enable
ICHOFFSET	QUANT	0	Ich Offset (V)
ICHFILTER	IQUANT	4	Ich Filter
VCHRANGE	IQUANT	2	Vch Range
VCHRANGEMODE	TOGGLE	F	Vch Auto Range
VCHOFFSETENABLE	TOGGLE	T	Vch Offset Enable
VCHOFFSET	QUANT	0	Vch Offset (V)
VCHFILTER	IQUANT	4	Vch Filter
IERANGELOWERLIMIT	IQUANT	7	I/E Range Lower Limit
IERANGEMODE	TOGGLE	F	I/E AutoRange
IERANGE	IQUANT	12	I/E Range
ACHSELECT	IQUANT	4	Ach Select
ACHRANGE	IQUANT	2	Ach Range
ACHOFFSETENABLE	TOGGLE	F	Ach Offset Enable
ACHOFFSET	QUANT	0	Ach Offset (V)
ACHFILTER	IQUANT	1	Ach Filter
SENSECABLEID	IQUANT	13	Sense Cable ID
PWRCABLEID	IQUANT	13	Power Cable ID
DCCALDATE	LABEL	9/14/2022	DC Calibration Date
ACCALDATE	LABEL	5/25/2021	AC Calibration Date
FRAMEWORKVERSION	LABEL	7.10.0	Framework Version
INSTRUMENTVERSION	LABEL	4.71	Instrument Version
COMMVERSION	LABEL	3.10	Communications Version
CPUPLDVERSION	LABEL	5.25	CPU PLD Version
CTRLPLDVERSION	LABEL	0.00	CTRL PLD Version
PSTATPLDVERSION	LABEL	0.00	PSTAT PLD Version
ZCURVE	TABLE
	Pt	Time	Freq	Zreal	Zimag	Zsig	Zmod	Zphz	Idc	Vdc	IERange	Imod	Vmod	Temp
	#	s	Hz	ohm	ohm	V	ohm	°	A	V	#	A	V	°C
	0	3	100019,5	0,0027472	0,0182901	1	0,0184953	81,45782	0,0001208	3,827493	11	0,0336152	0,0006227	1395,327
	1	8	79511,72	0,0025698	0,0146964	1	0,0149194	80,08166	0,0001539	3,827476	11	0,0548775	0,0008191	1395,501
	2	10	63105,47	0,002407	0,0116906	1	0,0119358	78,36585	9,338465E-005	3,827515	12	1,159245	0,0138553	1395,501
	3	12	50214,84	0,0022806	0,0093838	1	0,009657	76,33998	0,000148	3,827531	12	0,3835775	0,0037073	1395,501
	4	14	39902,34	0,0021615	0,0075174	1	0,007822	73,958	0,0001251	3,827496	12	0,5140693	0,0040231	1395,501
	5	16	31699,22	0,002059	0,0060099	1	0,0063528	71,08829	7,051881E-005	3,827504	12	0,6282954	0,0039927	1395,414
	6	18	25136,72	0,0019796	0,0047811	1	0,0051748	67,50785	7,246947E-005	3,827495	12	0,7815519	0,0040451	1395,501
	7	20	19980,47	0,0019198	0,0037933	1	0,0042514	63,15564	0,0001076	3,827523	12	0,959513	0,0040798	1396,721
	8	22	15878,91	0,0018774	0,0029908	1	0,0035312	57,8825	0,0000982	3,827492	12	1,170951	0,0041351	1396,721
	9	24	12597,66	0,0018533	0,0023296	1	0,0029768	51,49633	0,0001148	3,827503	12	1,412396	0,0042047	1395,501
	10	26	10019,53	0,0018449	0,0017949	1	0,0025739	44,21283	8,602627E-005	3,827496	12	1,676617	0,0043156	1395,675
	11	28	7928,241	0,0018514	0,0013475	1	0,0022898	36,04948	-0,0001529	3,827439	12	1,940175	0,0044428	1395,588
	12	30	6307,871	0,0018708	0,0009883	1	0,0021158	27,84728	-0,0001693	3,827466	12	2,182357	0,0046174	1395,675
	13	31	5034,722	0,0019055	0,0006968	1	0,0020289	20,08701	-0,0002058	3,827464	12	2,290105	0,0046552	1396,634
	14	33	3993,056	0,0019479	0,0004492	1	0,001999	12,9848	-0,0002258	3,827505	12	2,509348	0,0050218	1395,501
	15	35	3144,055	0,0019997	0,0002384	1	0,0020139	6,799005	0,0004277	3,827469	12	2,520257	0,0050789	1395,588
	16	37	2519,531	0,0020563	7,535143E-005	1	0,0020577	2,098643	0,0004415	3,827519	12	2,489183	0,005124	1395,849
	17	39	2000,762	0,0021223	-6,720753E-005	1	0,0021234	-1,813763	0,0004371	3,827509	12	2,432475	0,0051664	1395,675
	18	41	1580,669	0,0021962	-0,0001901	1	0,0022044	-4,947926	0,0004428	3,827544	12	2,355541	0,0051933	1395,501
	19	42	1253,634	0,0022765	-0,000294	1	0,0022955	-7,359694	0,0004227	3,827525	12	2,268151	0,0052069	1396,634
	20	44	1000,702	0,0023614	-0,0003797	1	0,0023917	-9,135523	-0,000198	3,827519	12	2,178575	0,0052109	1395,501
	21	46	790,0281	0,0024565	-0,0004602	1	0,0024992	-10,60998	-0,0002184	3,827491	12	2,090818	0,0052255	1395,501
	22	48	628,811	0,0025572	-0,0005185	1	0,0026092	-11,46173	0,0004465	3,827531	12	1,999584	0,0052174	1395,588
	23	50	502,2321	0,0026575	-0,0005721	1	0,0027183	-12,14997	0,0004249	3,827525	12	1,843771	0,0050252	1396,721
	24	51	400,1524	0,0027643	-0,000616	1	0,0028321	-12,56325	0,0004462	3,827549	12	1,882244	0,0053378	1395,588
	25	53	315,5048	0,0028785	-0,0006522	1	0,0029514	-12,76674	0,0004614	3,827531	12	1,781471	0,0052614	1395,588
	26	55	252,0161	0,0029888	-0,000681	1	0,0030654	-12,83582	-0,000124	3,827524	12	1,699121	0,0052103	1395,501
	27	57	200,3205	0,0030963	-0,000702	1	0,0031749	-12,77454	-0,0001288	3,827507	12	1,629497	0,0051745	1396,721
	28	58	158,0056	0,0032032	-0,0007215	1	0,0032834	-12,69427	-0,0001504	3,827516	12	1,569637	0,0051544	1395,588
	29	60	125,558	0,0032994	-0,0007433	1	0,0033821	-12,69541	0,0004604	3,827519	12	1,507781	0,0050997	1395,588
	30	62	99,734	0,0033943	-0,0007744	1	0,0034815	-12,85153	-0,0001493	3,827531	12	1,444643	0,0050298	1395,588
	31	64	79,44915	0,003494	-0,0008165	1	0,0035881	-13,15312	0,0005512	3,827594	12	1,454167	0,0052178	1395,501
	32	65	62,91946	0,0035913	-0,0008817	1	0,003698	-13,79392	-8,419296E-005	3,827556	12	1,393624	0,0051537	1395,588
	33	67	49,86702	0,0037079	-0,0009611	1	0,0038304	-14,53218	0,0005572	3,827627	12	1,352336	0,00518	1395,588
	34	69	38,42213	0,0038661	-0,0010697	1	0,0040114	-15,46581	0,0005529	3,827542	12	1,305334	0,0052362	1395,588
	35	71	31,25	0,0040278	-0,0011597	1	0,0041914	-16,0626	0,0005344	3,827535	12	1,246476	0,0052245	1395,675
	36	73	24,93351	0,0042368	-0,0012476	1	0,0044166	-16,40789	0,0005469	3,82758	12	1,192905	0,0052687	1395,501
	37	75	20,03205	0,0044734	-0,0013072	1	0,0046605	-16,28972	-7,521868E-005	3,827561	12	1,132136	0,0052763	1395,501
	38	77	15,625	0,0047599	-0,0013318	1	0,0049427	-15,63142	0,0005454	3,827592	12	1,072794	0,0053025	1396,634
	39	79	12,46675	0,0050281	-0,0013039	1	0,0051944	-14,53807	0,0005414	3,827578	12	1,011581	0,0052546	1396,721
	40	81	9,9734	0,0052638	-0,0012394	1	0,0054077	-13,24933	0,0005377	3,827577	12	0,962576	0,0052053	1395,414
	41	84	7,971939	0,0054694	-0,0011454	1	0,0055881	-11,82741	0,0005271	3,82759	12	0,9246033	0,0051668	1396,721
	42	86	6,351626	0,0056401	-0,001032	1	0,0057337	-10,36854	0,000536	3,827595	12	0,8947648	0,0051304	1396,634
	43	89	5,013369	0,0057878	-0,0009355	1	0,0058629	-9,181934	-6,92808E-005	3,827602	12	0,8720648	0,0051128	1395,24
	44	92	3,985969	0,0058923	-0,0008401	1	0,0059519	-8,114442	0,0005314	3,827613	12	0,852779	0,0050756	1395,588
	45	95	3,175813	0,0059748	-0,0007721	1	0,0060244	-7,362963	0,0005373	3,827628	12	0,8400727	0,005061	1395,501
	46	98	2,516103	0,0060393	-0,0007035	1	0,0060802	-6,643865	-3,451435E-005	3,827644	12	0,80401	0,0048845	1396,721
	47	102	1,99553	0,0061097	-0,0007003	1	0,0061497	-6,538996	-4,053116E-005	3,82765	12	0,8377795	0,0051482	1395,327
	48	107	1,587906	0,0061686	-0,0006849	1	0,0062065	-6,335304	0,0005461	3,827665	12	0,8190504	0,0050805	1395,414
	49	112	1,258052	0,0062236	-0,0007149	1	0,0062646	-6,553105	-4,641269E-005	3,827672	12	0,8080725	0,0050602	1395,327
	50	118	0,997765	0,0062901	-0,0007665	1	0,0063366	-6,947412	-4,996825E-005	3,827681	12	0,7991149	0,0050623	1395,327
	51	125	0,7927448	0,0063587	-0,0008254	1	0,0064121	-7,396138	-4,988443E-005	3,827682	12	0,7894855	0,0050613	1396,808
	52	133	0,6290258	0,0064499	-0,0009227	1	0,0065156	-8,141394	-4,356285E-005	3,827713	12	0,7799939	0,0050815	1395,588
	53	142	0,4988825	0,0065414	-0,0010429	1	0,006624	-9,05879	-4,44547E-005	3,827717	12	0,7675281	0,0050838	1395,501
	54	154	0,3985969	0,0066612	-0,0011848	1	0,0067657	-10,08509	0,0005411	3,827725	12	0,7548949	0,0051072	1396,808
	55	168	0,316723	0,0068071	-0,001332	1	0,0069362	-11,07177	0,0005405	3,827742	12	0,7391005	0,0051264	1395,871
	56	186	0,2514753	0,0069894	-0,0015123	1	0,0071511	-12,2091	0,0005393	3,827759	12	0,7209349	0,0051554	1395,327
	57	208	0,1999787	0,0071919	-0,001713	1	0,0073931	-13,39708	0,0005378	3,827802	12	0,6992399	0,0051695	1395,501
	58	230	0,1587906	0,0074281	-0,0019384	1	0,0076768	-14,62581	0,000534	3,827811	12	0,6763451	0,0051922	1396,808
	59	262	0,1260081	0,007717	-0,0021862	1	0,0080206	-15,81715	0,0005354	3,828007	12	0,6513371	0,0052241	1395,903
	60	293	0,1001603	0,0080294	-0,0024726	1	0,0084015	-17,11597	0,0005335	3,828456	12	0,6234118	0,0052376	1396,323
	61	340	0,0795031	0,008391	-0,0027827	1	0,0088404	-18,34688	0,0005326	3,829027	12	0,5951423	0,0052613	1396,808
	62	392	0,0631398	0,0087935	-0,0031138	1	0,0093285	-19,49931	0,0005302	3,828906	12	0,5655992	0,0052762	1395,762
	63	442	0,050123	0,0092775	-0,0034477	1	0,0098974	-20,3862	0,0005313	3,828909	12	0,5359959	0,0053049	1396,721
	64	504	0,0398326	0,0098025	-0,0037582	1	0,0104982	-20,97639	0,000529	3,828898	12	0,5051919	0,0053036	1396,895
	65	606	0,0316381	0,0103804	-0,0040528	1	0,0111436	-21,32702	0,0005185	3,828924	12	0,4762743	0,0053074	1395,675
	66	735	0,025126	0,010961	-0,0043355	1	0,0117873	-21,58088	0,000516	3,828958	12	0,4486892	0,0052888	1396,808
	67	896	0,019957	0,0115139	-0,0046233	1	0,0124074	-21,87733	0,0005139	3,829002	12	0,4241841	0,005263	1396,895
	68	1098	0,015849	0,0120482	-0,0049597	1	0,0130291	-22,37478	0,0005127	3,829082	12	0,4029826	0,0052505	1395,762
	69	1290	0,01259	0,0125602	-0,0053702	1	0,01366	-23,14951	0,0005122	3,829165	12	0,3837537	0,0052421	1396,895
	70	1609	0,0100006	0,0130426	-0,0058905	1	0,0143111	-24,30556	0,0005126	3,829252	12	0,3660306	0,0052383	1396,895
