EXPLAIN
TAG	EISPOT
TITLE	LABEL	RawEISGamry_02-02A_21-10-002	Test &Identifier
DATE	LABEL	4.1.2022	Date
TIME	LABEL	13:47:16	Time
NOTES	NOTES	1	&Notes...
	
PSTAT	PSTAT	G-02	Potentiostat
VDC	POTEN	0,00000E+000	T	DC &Voltage (V)
FREQINIT	QUANT	5,00000E+005	Initial Fre&q. (Hz)
FREQFINAL	QUANT	1,00000E-002	Final Fre&q. (Hz)
PTSPERDEC	QUANT	1,00000E+001	Points/&decade
VAC	QUANT	3,00000E+000	AC &Voltage (mV rms)
AREA	QUANT	1,00000E+000	&Area (cm^2)
CONDIT	TWOPARAM	F	1,50000E+001	0,00000E+000	Conditionin&g	Time(s)	E(V)
DELAY	TWOPARAM	T	5,00000E+000	0,00000E+000	Init. De&lay	Time(s)	Stab.(mV/s)
SPEED	SELECTOR	1	&Optimize for:
THD	SELECTOR	0	T&HD
DRIFTCOR	SELECTOR	1	&Drift Correction
ZGUESS	QUANT	1,00000E-001	E&stimated Z (ohms)
OCVCURVE	TABLE	20
	Pt	T	Vf	Vm	Ach	Over	Temp
	#	s	V vs. Ref.	V	V	bits	deg C
	0	0,25	3,86663E+000	3,86663E+000	1,99453E-003	...........	1386,98
	1	0,5	3,86663E+000	3,86664E+000	1,99273E-003	...........	1386,98
	2	0,75	3,86663E+000	3,86665E+000	2,00160E-003	...........	1386,98
	3	1	3,86664E+000	3,86670E+000	2,00060E-003	...........	1386,98
	4	1,25	3,86665E+000	3,86666E+000	2,00619E-003	...........	1388,03
	5	1,5	3,86666E+000	3,86668E+000	2,00759E-003	...........	1388,03
	6	1,75	3,86667E+000	3,86666E+000	2,02825E-003	...........	1388,03
	7	2	3,86667E+000	3,86668E+000	2,00106E-003	...........	1388,03
	8	2,25	3,86667E+000	3,86668E+000	1,99446E-003	...........	1388,11
	9	2,5	3,86667E+000	3,86665E+000	2,00493E-003	...........	1388,11
	10	2,75	3,86667E+000	3,86663E+000	2,00193E-003	...........	1388,11
	11	3	3,86667E+000	3,86665E+000	2,00666E-003	...........	1388,11
	12	3,25	3,86666E+000	3,86671E+000	2,01053E-003	...........	1388,11
	13	3,5	3,86666E+000	3,86669E+000	2,03052E-003	...........	1388,11
	14	3,75	3,86667E+000	3,86666E+000	2,01452E-003	...........	1388,11
	15	4	3,86668E+000	3,86668E+000	2,00093E-003	...........	1388,11
	16	4,25	3,86668E+000	3,86670E+000	2,00166E-003	...........	1388,11
	17	4,5	3,86668E+000	3,86666E+000	2,00419E-003	...........	1388,11
	18	4,75	3,86668E+000	3,86669E+000	1,99900E-003	...........	1388,11
	19	5	3,86668E+000	3,86673E+000	1,99820E-003	...........	1388,11
EOC	QUANT	3,866682	Open Circuit (V)
PSTATMODEL	IQUANT	53	Pstat Model
PSTATSECTION	LABEL	IFC5000-10520	Pstat Section
PSTATSERIALNO	LABEL	10520	Pstat Serial Number
CTRLMODE	IQUANT	1	Control Mode
ELECTROMETER	IQUANT	0	RE=0 or CS=1
IESTAB	IQUANT	0	I/E Stability
CASPEED	IQUANT	3	Control Amp Speed
CONVENTION	IQUANT	1	Current Convention
ICHRANGE	IQUANT	2	Ich Range
ICHRANGEMODE	TOGGLE	F	Ich Auto Range
ICHOFFSETENABLE	TOGGLE	T	Ich Offset Enable
ICHOFFSET	QUANT	0	Ich Offset (V)
ICHFILTER	IQUANT	4	Ich Filter
VCHRANGE	IQUANT	2	Vch Range
VCHRANGEMODE	TOGGLE	F	Vch Auto Range
VCHOFFSETENABLE	TOGGLE	T	Vch Offset Enable
VCHOFFSET	QUANT	0	Vch Offset (V)
VCHFILTER	IQUANT	4	Vch Filter
IERANGELOWERLIMIT	IQUANT	7	I/E Range Lower Limit
IERANGEMODE	TOGGLE	F	I/E AutoRange
IERANGE	IQUANT	12	I/E Range
ACHSELECT	IQUANT	4	Ach Select
ACHRANGE	IQUANT	2	Ach Range
ACHOFFSETENABLE	TOGGLE	F	Ach Offset Enable
ACHOFFSET	QUANT	0	Ach Offset (V)
ACHFILTER	IQUANT	1	Ach Filter
SENSECABLEID	IQUANT	13	Sense Cable ID
PWRCABLEID	IQUANT	13	Power Cable ID
DCCALDATE	LABEL	6/4/2021	DC Calibration Date
ACCALDATE	LABEL	5/25/2021	AC Calibration Date
FRAMEWORKVERSION	LABEL	7.8.5	Framework Version
INSTRUMENTVERSION	LABEL	4.50	Instrument Version
ZCURVE	TABLE
	Pt	Time	Freq	Zreal	Zimag	Zsig	Zmod	Zphz	ZrealDrCor	ZimagDrCor	ZmodDrCor	ZphzDrCor	Idc	Vdc	IERange
	#	s	Hz	ohm	ohm	V	ohm	°	ohm	ohm	ohm	°	A	V	#
	0	3	500039,1	0,0235293	0,1034817	1	0,106123	77,19009	0,0235293	0,1034817	0,106123	77,19009	-0,0159617	3,868551	11
	1	4	397382,8	0,0231581	0,0824048	1	0,085597	74,30315	0,0231581	0,0824048	0,085597	74,30315	-0,0152917	3,86855	11
	2	6	315585,9	0,0222437	0,0646782	1	0,0683963	71,02126	0,0222437	0,0646782	0,0683963	71,02126	-0,0159313	3,868656	12
	3	8	250664,1	0,0225537	0,0518675	1	0,0565589	66,49895	0,0225537	0,0518675	0,0565589	66,49895	-0,01427	3,868655	11
	4	9	199101,6	0,0223838	0,041045	1	0,0467517	61,39419	0,0223838	0,041045	0,0467517	61,39419	-0,0140449	3,868669	11
	5	11	158320,3	0,0223247	0,0323853	1	0,0393345	55,41962	0,0223247	0,0323853	0,0393345	55,41962	-0,0138816	3,868632	11
	6	13	125742,2	0,022324	0,0254038	1	0,0338188	48,69207	0,022324	0,0254038	0,0338188	48,69207	-0,013572	3,868665	11
	7	15	99960,9	0,0224632	0,0198293	1	0,0299633	41,43635	0,0224632	0,0198293	0,0299633	41,43635	-0,0131805	3,868667	11
	8	17	79335,94	0,0225919	0,0153379	1	0,0273065	34,17297	0,0225919	0,0153379	0,0273065	34,17297	-0,0130062	3,868654	11
	9	19	63164,06	0,0227764	0,0117761	1	0,0256406	27,34043	0,0227764	0,0117761	0,0256406	27,34043	-0,0127542	3,868685	11
	10	21	50039,06	0,0229731	0,0088812	1	0,02463	21,13603	0,0229731	0,0088812	0,02463	21,13603	-0,0127073	3,868674	11
	11	23	39726,56	0,0232185	0,0065745	1	0,0241313	15,80993	0,0232185	0,0065745	0,0241313	15,80993	-0,0084804	3,869026	11
	12	25	31757,81	0,0234688	0,0047593	1	0,0239465	11,46371	0,0234688	0,0047593	0,0239465	11,46371	-0,0084606	3,869023	11
	13	27	25195,31	0,0237423	0,0032317	1	0,0239613	7,751155	0,0237423	0,0032317	0,0239613	7,751155	-0,0084569	3,869037	11
	14	28	20039,06	0,0240359	0,0019982	1	0,0241188	4,752376	0,0240359	0,0019982	0,0241188	4,752376	-0,008311	3,869034	11
	15	30	15820,31	0,0243546	0,0009314	1	0,0243724	2,190166	0,0243546	0,0009314	0,0243724	2,190166	-0,008283	3,869033	11
	16	32	12461,89	0,0247002	3,691921E-005	1	0,0247002	0,0856395	0,0247002	3,691921E-005	0,0247002	0,0856395	-0,0082412	3,869027	11
	17	34	9946,65	0,0250624	-0,0006765	1	0,0250715	-1,5462	0,0250624	-0,0006765	0,0250715	-1,5462	-0,0082733	3,86904	11
	18	36	7888,72	0,0254535	-0,0013106	1	0,0254872	-2,947516	0,0254535	-0,0013106	0,0254872	-2,947516	-0,0083223	3,869033	11
	19	37	6288,11	0,0258936	-0,0018903	1	0,0259625	-4,17524	0,0258936	-0,0018903	0,0259625	-4,17524	-0,0082408	3,869051	11
	20	39	5039,063	0,0263136	-0,002348	1	0,0264182	-5,099051	0,0263136	-0,002348	0,0264182	-5,099051	-0,0082457	3,869062	11
	21	41	4001,524	0,0267932	-0,0027972	1	0,0269388	-5,960159	0,0267932	-0,0027972	0,0269388	-5,960159	-0,008346	3,869025	11
	22	43	3164,063	0,0273291	-0,0032307	1	0,0275194	-6,74191	0,0273291	-0,0032307	0,0275194	-6,74191	-0,0084319	3,869028	11
	23	44	2507,267	0,0278894	-0,0036461	1	0,0281268	-7,448268	0,0278894	-0,0036461	0,0281268	-7,448268	-0,0082811	3,869035	11
	24	46	1992,188	0,0284783	-0,004035	1	0,0287627	-8,064401	0,0284783	-0,004035	0,0287627	-8,064401	-0,0083286	3,869028	11
	25	48	1598,011	0,0290867	-0,0044009	1	0,0294177	-8,603751	0,0290867	-0,0044009	0,0294177	-8,603751	-0,0083212	3,869042	11
	26	50	1257,622	0,0297862	-0,0048099	1	0,0301721	-9,173056	0,0297862	-0,0048099	0,0301721	-9,173056	-0,0085291	3,869033	11
	27	52	1004,464	0,0304989	-0,0052067	1	0,0309401	-9,688	0,0304989	-0,0052067	0,0309401	-9,688	-0,0083389	3,869038	11
	28	53	800,3049	0,0312645	-0,0056037	1	0,0317628	-10,16154	0,0312645	-0,0056037	0,0317628	-10,16154	-0,0083366	3,86903	11
	29	55	631,0096	0,0321234	-0,0060464	1	0,0326874	-10,65974	0,0321234	-0,0060464	0,0326874	-10,65974	-0,0082046	3,869029	11
	30	57	498,6702	0,0330293	-0,0064913	1	0,0336611	-11,11874	0,0330293	-0,0064913	0,0336611	-11,11874	-0,0084235	3,869013	11
	31	58	397,2458	0,0339745	-0,0069429	1	0,0346767	-11,54975	0,0339745	-0,0069429	0,0346767	-11,54975	-0,008175	3,869033	11
	32	60	312,5	0,0350313	-0,0074269	1	0,03581	-11,96987	0,0350313	-0,0074269	0,03581	-11,96987	-0,0085444	3,869012	11
	33	61	251,1161	0,0360726	-0,00786	1	0,036919	-12,29231	0,0360726	-0,00786	0,036919	-12,29231	-0,008257	3,86906	11
	34	62	198,0634	0,0372668	-0,008371	1	0,0381954	-12,65984	0,0372668	-0,008371	0,0381954	-12,65984	-0,0082394	3,86903	11
	35	64	158,0056	0,0384629	-0,0088501	1	0,0394679	-12,95795	0,0384629	-0,0088501	0,0394679	-12,95795	-0,0084078	3,869047	11
	36	65	125,558	0,0397484	-0,0093785	1	0,0408398	-13,27587	0,0397484	-0,0093785	0,0408398	-13,27587	-0,008316	3,869023	11
	37	67	99,734	0,0411746	-0,0099313	1	0,0423554	-13,56072	0,0411746	-0,0099313	0,0423554	-13,56072	-0,008677	3,869037	11
	38	68	79,44915	0,0425744	-0,0104988	1	0,0438498	-13,85266	0,0425744	-0,0104988	0,0438498	-13,85266	-0,0086761	3,86904	11
	39	70	63,34459	0,0441285	-0,0110831	1	0,045499	-14,0985	0,0441285	-0,0110831	0,045499	-14,0985	-0,0085787	3,869022	11
	40	71	45,07212	0,0465	-0,0119683	1	0,0480155	-14,43362	0,0465	-0,0119683	0,0480155	-14,43362	-0,0082928	3,869061	11
	41	73	38,10976	0,047779	-0,0124509	1	0,0493747	-14,60601	0,047779	-0,0124509	0,0493747	-14,60601	-0,0084501	3,86902	11
	42	74	31,25	0,049332	-0,0130378	1	0,0510258	-14,80404	0,049332	-0,0130378	0,0510258	-14,80404	-0,0082767	3,869068	11
	43	76	24,93351	0,0511839	-0,0137689	1	0,0530036	-15,05655	0,0511839	-0,0137689	0,0530036	-15,05655	-0,0083957	3,869066	11
	44	77	19,94681	0,0531711	-0,0145976	1	0,0551385	-15,35174	0,0531711	-0,0145976	0,0551385	-15,35174	-0,0083637	3,86905	11
	45	79	15,57309	0,055707	-0,0155316	1	0,0578316	-15,5789	0,055707	-0,0155316	0,0578316	-15,5789	-0,0083594	3,86905	11
	46	80	12,40079	0,0583245	-0,0163454	1	0,0605716	-15,65549	0,0583245	-0,0163454	0,0605716	-15,65549	-0,0084543	3,86905	11
	47	82	9,91015	0,0612277	-0,016972	1	0,0635365	-15,49313	0,0612043	-0,016954	0,0635091	-15,48306	-0,0084655	3,869033	11
	48	84	7,971939	0,0644017	-0,0172769	1	0,0666789	-15,01707	0,064379	-0,0172758	0,0666567	-15,02118	-0,0084313	3,869037	11
	49	86	6,351626	0,0678853	-0,0170475	1	0,0699931	-14,09675	0,0678367	-0,0170432	0,0699449	-14,10301	-0,0084317	3,869048	11
	50	88	4,970838	0,0715176	-0,0161247	1	0,0733128	-12,70573	0,0715607	-0,0161409	0,0733584	-12,71064	-0,0085489	3,869049	11
	51	91	3,942389	0,0743062	-0,0148438	1	0,0757743	-11,29703	0,0742846	-0,0148468	0,0757537	-11,30243	-0,0085636	3,869041	11
	52	94	3,16723	0,0766195	-0,0131207	1	0,0777348	-9,71736	0,0765818	-0,0131085	0,0776956	-9,71315	-0,008546	3,869049	11
	53	97	2,485419	0,0788968	-0,0115791	1	0,079742	-8,34928	0,0788945	-0,0115913	0,0797414	-8,358154	-0,0085887	3,869057	11
	54	101	1,971194	0,0801235	-0,009872	1	0,0807293	-7,024023	0,0801461	-0,0098527	0,0807495	-7,008477	-0,008664	3,869058	11
	55	105	1,583615	0,0815307	-0,0084676	1	0,0819693	-5,92933	0,0815526	-0,0084628	0,0819905	-5,924466	-0,0086513	3,869062	11
	56	110	1,260081	0,0819537	-0,007204	1	0,0822697	-5,023565	0,081953	-0,0071922	0,082268	-5,015453	-0,0087471	3,869058	11
	57	115	1,001603	0,0826362	-0,0059963	1	0,0828535	-4,150249	0,0825848	-0,0060068	0,0828029	-4,160077	-0,0088982	3,86906	11
	58	120	0,7971939	0,0830737	-0,0052734	1	0,0832409	-3,632147	0,0830808	-0,0052639	0,0832474	-3,625362	-0,0089555	3,869059	11
	59	127	0,6300403	0,0834435	-0,0045834	1	0,0835693	-3,144026	0,0834434	-0,0045777	0,0835689	-3,140105	-0,009024	3,86906	11
	60	134	0,5008013	0,0837328	-0,0041434	1	0,0838353	-2,832858	0,0837396	-0,0041444	0,0838421	-2,833321	-0,0091789	3,869057	11
	61	146	0,3972458	0,08406	-0,0037718	1	0,0841446	-2,569138	0,0840334	-0,0037774	0,0841183	-2,573797	-0,0093023	3,869058	11
	62	160	0,3158693	0,0841834	-0,0034991	1	0,0842561	-2,380111	0,0842027	-0,003505	0,0842756	-2,383627	-0,0093982	3,869065	11
	63	177	0,2509368	0,0844389	-0,003479	1	0,0845106	-2,359346	0,0844368	-0,0034752	0,0845083	-2,356803	-0,0096038	3,86907	11
	64	194	0,1992985	0,0847169	-0,0035841	1	0,0847927	-2,422584	0,0847224	-0,003587	0,0847983	-2,424354	-0,0097808	3,869071	11
	65	216	0,1581478	0,0848977	-0,0037883	1	0,0849822	-2,554959	0,0848783	-0,0037828	0,0849626	-2,5518	-0,0099922	3,86908	11
	66	242	0,1256029	0,085167	-0,0040654	1	0,085264	-2,732887	0,085176	-0,0040761	0,0852735	-2,739785	-0,0102479	3,869085	11
	67	282	0,099819	0,0855113	-0,0045219	1	0,0856308	-3,027055	0,0855031	-0,0045207	0,0856225	-3,026502	-0,0106009	3,8691	11
	68	324	0,0792879	0,0858159	-0,0052038	1	0,0859735	-3,470099	0,0858069	-0,0052019	0,0859645	-3,469192	-0,0108559	3,8691	11
	69	376	0,0629702	0,086137	-0,0060115	1	0,0863465	-3,992225	0,0861193	-0,0059973	0,0863279	-3,983603	-0,0110553	3,869112	11
	70	425	0,050016	0,0866309	-0,0070938	1	0,0869208	-4,68124	0,0866347	-0,007082	0,0869237	-4,673311	-0,011161	3,869137	11
	71	486	0,0397246	0,0873098	-0,0083641	1	0,0877095	-5,472141	0,0873213	-0,0083613	0,0877207	-5,469602	-0,0113112	3,869152	11
	72	563	0,0315529	0,0880577	-0,0099466	1	0,0886177	-6,444551	0,0880581	-0,0099507	0,0886185	-6,447154	-0,0113783	3,86916	11
	73	659	0,0250615	0,0890915	-0,0118556	1	0,0898768	-7,579924	0,0890361	-0,0118421	0,0898201	-7,576084	-0,0113606	3,869183	11
	74	780	0,0199061	0,0904796	-0,0141071	1	0,0915728	-8,86192	0,0903957	-0,0140782	0,0914854	-8,852136	-0,0112076	3,869196	11
	75	932	0,0158126	0,0921521	-0,0166884	1	0,093651	-10,26483	0,0920943	-0,0166575	0,0935887	-10,2525	-0,0108393	3,869225	11
	76	1124	0,0125603	0,0944883	-0,0196221	1	0,0965042	-11,73167	0,0943781	-0,0195646	0,0963847	-11,71151	-0,0102351	3,869252	11
	77	1364	0,0099768	0,0974507	-0,0227641	1	0,1000742	-13,14827	0,0972838	-0,0226784	0,0998922	-13,12219	-0,0092665	3,869274	11
